"Time","Vm1:Measured voltage:1","Vm1:Measured voltage:2","Vm1:Measured voltage:3","Divide18:1","Divide18:2","Divide18:3","Am1:Measured current"
0,100,100,100,0.083333333333333426,0.083333333333333426,0.083333333333333426,0
0.0009999999999999998,99.953257414251041,99.953257414251269,99.95325741425134,0.10773928888869141,0.10773928888869345,0.10773928888869408,-1.8962016908746122
0.0019999999999999996,99.873282214285894,99.873282214286149,99.873282214286448,0.15288604116405854,0.15288604116406071,0.15288604116406324,-2.2072139944626876
0.0029999999999999996,99.746098983860946,99.746098983861359,99.746098983861742,0.22178906453488784,0.22178906453489106,0.22178906453489405,-2.3318002154545256
0.0039999999999999992,99.564186510720035,99.564186510720319,99.56418651072066,0.31038129486869709,0.31038129486869903,0.31038129486870142,-2.2619341500728942
0.0049999999999999992,99.337011284835881,99.33701128483635,99.337011284836692,0.40994620650664665,0.40994620650664942,0.40994620650665142,-2.0133793701687521
0.0059999999999999993,99.096025441252394,99.096025441253403,99.096025441253445,0.5102260200302029,0.51022602003020789,0.51022602003020812,-1.5870909421711716
0.0069999999999999993,98.89389994800743,98.893899948008951,98.893899948008979,0.60132863391992486,0.60132863391993097,0.60132863391993108,-0.97926750021649189
0.0079999999999999984,98.796367013792363,98.796367013794566,98.79636701379421,0.67514767969105183,0.67514767969105915,0.67514767969105793,-0.23083144502757591
0.0089999999999999993,98.85625060598511,98.8562506059871,98.856250605986361,0.72536387823733584,0.72536387823730109,0.72536387823731396,0.55734811613128188
0.0099999999999999985,99.083617661410244,99.083617661411992,99.083617661411338,0.74659941259803242,0.74659941259800167,0.7465994125980131,1.1797990281245716
0.010999999999999999,99.41933366571655,99.419333665718298,99.419333665716948,0.73684040000989903,0.7368404000098685,0.73684040000989204,1.4701461407655083
0.011999999999999999,99.758341701605119,99.758341701606241,99.758341701605843,0.69621918820719508,0.69621918820717599,0.69621918820718276,1.3070233597522298
0.012999999999999998,99.989496912357438,99.989496912358646,99.989496912358362,0.62712935520527735,0.6271293552052577,0.62712935520526236,0.6944390802148348
0.013999999999999999,100.05384156362732,100.0538415636283,100.05384156362817,0.53680559776692205,0.5368055977669266,0.53680559776692605,-0.21952810816361712
0.014999999999999998,99.960459922870569,99.96045992287101,99.960459922871024,0.43380780556618209,0.43380780556618459,0.4338078055661847,-1.2318679292053929
0.015999999999999997,99.77408281936907,99.774082819369426,99.774082819368843,0.33172780957791936,0.3317278095779217,0.33172780957791781,-2.0899738424498411
0.016999999999999998,99.568193144627543,99.568193144627642,99.568193144626889,0.24103670065031976,0.24103670065032051,0.24103670065031479,-2.723733941946354
0.017999999999999999,99.386513546249503,99.386513546249915,99.386513546249134,0.17161248770988971,0.17161248770989312,0.17161248770988663,-3.1601134317063573
0.018999999999999996,99.23717220479385,99.237172204794291,99.237172204793382,0.12973207761794067,0.12973207761794453,0.12973207761793656,-3.5084822056382001
0.019999999999999997,99.101751963121401,99.101751963122226,99.101751963121288,0.11614683189446197,0.11614683189446932,0.11614683189446096,-3.9475781752000692
0.020999999999999998,98.94820352488378,98.948203524884477,98.948203524883539,0.12765461933574285,0.12765461933574901,0.12765461933574074,-4.5262822175903139
0.021999999999999999,98.740403451170764,98.740403451171545,98.740403451170607,0.15986136559908892,0.15986136559909558,0.15986136559908759,-5.102171391521038
0.022999999999999996,98.447468124233012,98.447468124233893,98.447468124233254,0.20994978807529599,0.20994978807530304,0.20994978807529791,-5.3741170027930014
0.023999999999999997,98.063733179346215,98.063733179347295,98.063733179346499,0.27809340432747942,0.27809340432748741,0.27809340432748153,-5.0233390708661236
0.024999999999999998,97.631934978226298,97.631934978227676,97.631934978227378,0.36431041951456189,0.36431041951457088,0.36431041951456894,-3.9229846143656353
0.025999999999999995,97.256098701383451,97.256098701385056,97.256098701384715,0.46403836057935893,0.46403836057936776,0.46403836057936587,-2.2136654948383168
0.026999999999999996,97.084425236581225,97.084425236582874,97.084425236582703,0.56933384701079293,0.56933384701080014,0.56933384701079948,-0.19335057889524254
0.027999999999999997,97.254333507957327,97.254333507959004,97.254333507958719,0.66605071202075639,0.66605071202072763,0.66605071202073252,1.6986276306131465
0.028999999999999995,97.805364426652318,97.805364426654563,97.805364426654165,0.74040619747977443,0.74040619747973446,0.74040619747974157,3.0854810125255203
0.029999999999999995,98.628915302532164,98.628915302534992,98.62891530253448,0.77944507851789702,0.77944507851784595,0.77944507851785516,3.6305397609029066
0.030999999999999996,99.489964701621318,99.489964701624771,99.489964701624643,0.77651875663943892,0.77651875663937731,0.77651875663937964,3.237328930361536
0.031999999999999994,100.14180966168043,100.14180966168415,100.14180966168423,0.73222475902637274,0.73222475902630835,0.7322247590263069,2.0622928664329319
0.032999999999999995,100.4409652754173,100.44096527542131,100.44096527542224,0.65402501838242222,0.65402501838235616,0.65402501838234073,0.46610809545893872
0.033999999999999996,100.3948347639559,100.39483476395962,100.39483476396087,0.55166997221775393,0.55166997221777059,0.55166997221777614,-1.1929852042660141
0.034999999999999996,100.11963443750457,100.11963443750797,100.11963443750882,0.4382528690729155,0.43825286907293459,0.43825286907293937,-2.625890893278048
0.035999999999999997,99.759689542290687,99.759689542294268,99.759689542295163,0.32730733254260236,0.32730733254262651,0.32730733254263256,-3.6872744465867839
0.036999999999999998,99.421078730982188,99.421078730985968,99.421078730986963,0.23023334719226798,0.23023334719229727,0.23023334719230495,-4.4041998729241056
0.037999999999999992,99.152748030454049,99.152748030457687,99.152748030458866,0.15683896876356163,0.15683896876359255,0.15683896876360259,-4.8743248838770574
0.038999999999999993,98.951547509912203,98.951547509915684,98.95154750991675,0.10983907219205652,0.10983907219208784,0.10983907219209743,-5.255890314666229
0.039999999999999994,98.790094938890931,98.790094938894441,98.790094938895692,0.092715655777435541,0.092715655777467779,0.092715655777479269,-5.5495668432964358
0.040999999999999995,98.625977800250681,98.625977800254176,98.625977800255413,0.10288899232294188,0.10288899232297367,0.10288899232298493,-5.7761535151549657
0.041999999999999996,98.417624249933979,98.417624249937703,98.417624249938868,0.13892350439203818,0.13892350439207077,0.13892350439208095,-5.7865034419862091
0.042999999999999997,98.135171212138758,98.135171212142026,98.135171212143277,0.1982632427295804,0.1982632427296071,0.19826324272961734,-5.4012900304113742
0.043999999999999997,97.78200177180247,97.782001771806165,97.782001771807529,0.27739177499883044,0.2773917749988577,0.2773917749988678,-4.4886333259730247
0.044999999999999991,97.419515068848526,97.419515068852462,97.419515068854153,0.37256551958307726,0.37256551958310263,0.37256551958311351,-2.9883441034322411
0.045999999999999992,97.173644007260805,97.17364400726467,97.173644007266887,0.47743438285799311,0.47743438285801393,0.47743438285802581,-1.0027548630895149
0.046999999999999993,97.20998332134441,97.209983321348588,97.209983321350592,0.58352135387735404,0.58352135387728599,0.58352135387725335,1.2222092892574308
0.047999999999999994,97.665312604488236,97.665312604492613,97.665312604494247,0.67675252991441337,0.67675252991433821,0.67675252991431012,3.2135127708470428
0.048999999999999995,98.552227451899824,98.552227451904528,98.552227451906575,0.74583186317061312,0.74583186317052974,0.74583186317049355,4.5938301127720562
0.049999999999999996,99.714777257167782,99.714777257171932,99.714777257173694,0.77947831589052929,0.77947831589045524,0.77947831589042382,4.9642614714816711
0.050999999999999997,100.85430689270343,100.85430689270837,100.8543068927104,0.77350184995361415,0.77350184995352744,0.77350184995349169,4.2400786696056496
0.051999999999999991,101.67510606124934,101.67510606125423,101.67510606125632,0.72736677645497938,0.72736677645489634,0.72736677645486092,2.5394962680976958
0.052999999999999992,102.00593175884812,102.00593175885253,102.00593175885426,0.64721514053326767,0.64721514053319651,0.64721514053316853,0.29819751556399865
0.053999999999999992,101.87304104833841,101.87304104834273,101.87304104834507,0.54236583086460588,0.54236583086462531,0.54236583086463575,-1.9942324083409009
0.054999999999999993,101.45014259551655,101.45014259552069,101.45014259552219,0.42544233508952112,0.42544233508954454,0.42544233508955309,-3.8993757754191556
0.055999999999999994,100.94894323845645,100.94894323846007,100.94894323846151,0.3101383651932289,0.31013836519325366,0.31013836519326343,-5.1381790384517085
0.056999999999999995,100.52488253866845,100.52488253867203,100.52488253867368,0.21239298865812695,0.21239298865815501,0.21239298865816791,-5.6088626319353523
0.057999999999999989,100.22926996489073,100.22926996489429,100.22926996489588,0.14004647393646799,0.14004647393649847,0.14004647393651212,-5.5261852695142624
0.05899999999999999,100.0403265080155,100.04032650801909,100.04032650802061,0.099183053901606547,0.099183053901638923,0.099183053901652607,-5.1204661685032793
0.059999999999999991,99.904883187196532,99.904883187199871,99.904883187201719,0.089050718130739892,0.08905071813077034,0.089050718130787188,-4.66259578274971
0.060999999999999992,99.77497261752481,99.774972617528249,99.774972617530068,0.10701858736095608,0.10701858736098685,0.10701858736100314,-4.3008667445893138
0.061999999999999993,99.616470202976203,99.616470202979613,99.616470202981176,0.14937096414072809,0.14937096414075721,0.14937096414077056,-4.0177633036697049
0.062999999999999987,99.408969440535969,99.408969440539295,99.408969440540758,0.21216272861292665,0.21216272861295302,0.21216272861296462,-3.6727781187689121
0.063999999999999987,99.153760904528639,99.153760904532106,99.153760904533613,0.29176919804587992,0.29176919804590468,0.29176919804591545,-3.1013437158620754
0.064999999999999988,98.887474053180782,98.887474053184235,98.887474053186025,0.38468538408337882,0.38468538408340031,0.38468538408341141,-2.2025976241026228
0.065999999999999989,98.686974723813961,98.686974723817272,98.686974723819191,0.4858235224071506,0.48582352240716786,0.48582352240717785,-0.99578287149758093
0.06699999999999999,98.648401690644377,98.648401690647518,98.648401690649564,0.58506112421711765,0.58506112421706713,0.58506112421703427,0.31283148283524831
0.067999999999999991,98.844450282332801,98.844450282335245,98.844450282337505,0.67124920044699532,0.67124920044695402,0.67124920044691583,1.4767228316596646
0.068999999999999992,99.278071737119035,99.278071737122076,99.278071737124279,0.73305076027391802,0.73305076027386484,0.73305076027382643,2.254169972120553
0.069999999999999993,99.857533902666589,99.8575339026699,99.857533902672429,0.76261629063684999,0.76261629063679159,0.76261629063674696,2.4782801519211528
0.070999999999999994,100.42022292023661,100.42022292023967,100.42022292024178,0.75407251874588932,0.75407251874583603,0.75407251874579906,2.044063328645096
0.071999999999999995,100.80405184223534,100.80405184223932,100.80405184224148,0.70859341305127266,0.70859341305120516,0.70859341305116863,1.0718921987426784
0.072999999999999995,100.92247045669137,100.92247045669588,100.92247045669838,0.63227184214372334,0.63227184214373977,0.63227184214374887,-0.19129349821268171
0.073999999999999996,100.79504052344377,100.7950405234489,100.79504052345115,0.53435737514379245,0.5343573751438162,0.53435737514382653,-1.464685695907308
0.074999999999999983,100.51535212756683,100.51535212757189,100.51535212757412,0.42590392439766128,0.42590392439769015,0.42590392439770292,-2.5127687318275225
0.075999999999999984,100.19707444986204,100.19707444986685,100.19707444986919,0.31993825193514375,0.31993825193517633,0.31993825193519226,-3.2062821700980217
0.076999999999999985,99.918501221252029,99.918501221256804,99.91850122125939,0.22837672011130591,0.22837672011134277,0.22837672011136276,-3.5502995603343002
0.077999999999999986,99.708610800894334,99.708610800899052,99.708610800901326,0.16059209017439527,0.16059209017443499,0.16059209017445411,-3.6772720565020993
0.078999999999999987,99.5533135081034,99.553313508107934,99.553313508109909,0.11934406519836899,0.11934406519840909,0.11934406519842657,-3.8023110344152684
0.079999999999999988,99.423179687066849,99.423179687071055,99.423179687073059,0.10625103254542421,0.10625103254546203,0.10625103254548005,-4.019152055644601
0.080999999999999989,99.283095194744845,99.283095194749038,99.283095194751112,0.118554917487182,0.11855491748721922,0.11855491748723763,-4.3764692365958933
0.08199999999999999,99.097857729030594,99.097857729034772,99.097857729036861,0.15364786484006063,0.15364786484009629,0.15364786484011414,-4.7203227856563501
0.08299999999999999,98.838560802801368,98.838560802805361,98.838560802807322,0.20935972399759367,0.20935972399762562,0.2093597239976413,-4.7916324060421767
0.083999999999999991,98.497753760723839,98.497753760728145,98.497753760730248,0.28238751799001205,0.28238751799004341,0.28238751799005873,-4.3845088747134566
0.084999999999999992,98.117876336833504,98.117876336838236,98.117876336840126,0.37135265863148226,0.37135265863151257,0.37135265863152472,-3.3527559897319286
0.085999999999999993,97.800086189761927,97.800086189766404,97.800086189767953,0.47169982807255828,0.47169982807258248,0.47169982807259087,-1.7664980846264555
0.086999999999999994,97.683966568697201,97.683966568702289,97.683966568703539,0.57357378533370429,0.57357378533362235,0.57357378533360226,0.099036069536177163
0.087999999999999995,97.900011385409385,97.900011385414459,97.900011385415652,0.66584522578496097,0.66584522578487471,0.66584522578485439,1.9052627863141116
0.088999999999999982,98.48724011462042,98.487240114625124,98.487240114626204,0.73503607990968456,0.73503607990960174,0.73503607990958275,3.2512351660017478
0.089999999999999983,99.344177528202422,99.344177528206558,99.344177528207084,0.77068899462759954,0.77068899462752583,0.77068899462751639,3.8267870898922691
0.090999999999999984,100.24816577537436,100.24816577537901,100.24816577537879,0.76677722109745194,0.76677722109737001,0.76677722109737378,3.4952034457423844
0.091999999999999985,100.95578114921395,100.95578114921824,100.95578114921855,0.72394838460060207,0.72394838460052879,0.72394838460052346,2.3733618056693908
0.092999999999999985,101.31225479998142,101.31225479998537,101.31225479998561,0.64688401529991546,0.64688401529985129,0.6468840152998474,0.73868583698764745
0.093999999999999986,101.3096906554438,101.30969065544734,101.30969065544804,0.5463078682107646,0.54630786821078048,0.54630786821078359,-0.99355157668511929
0.094999999999999987,101.05939854016606,101.05939854016943,101.05939854016999,0.43394921606549036,0.43394921606550924,0.4339492160655124,-2.5259085537787138
0.095999999999999988,100.71074094139038,100.71074094139342,100.71074094139364,0.32287980443588726,0.32287980443590769,0.32287980443590913,-3.6488352650465119
0.096999999999999989,100.38151220083186,100.38151220083473,100.3815122008351,0.22574010258104291,0.22574010258106506,0.22574010258106791,-4.3279114031518775
0.09799999999999999,100.12586860864214,100.12586860864515,100.12586860864539,0.15255996519282569,0.1525599651928512,0.15255996519285325,-4.6722696088986089
0.098999999999999991,99.941713208111807,99.941713208114891,99.941713208115303,0.10768546470988091,0.10768546470990845,0.10768546470991212,-4.8439814530611569
0.099999999999999992,99.797144420183614,99.797144420186697,99.79714442018718,0.09188804123713501,0.091888041237163071,0.091888041237167456,-4.9634186954942647
0.10099999999999999,99.651909809018008,99.651909809021163,99.651909809021561,0.10387700885224149,0.10387700885226986,0.10387700885227344,-5.0702879997115247
0.10199999999999999,99.466808466231228,99.46680846623444,99.46680846623498,0.14116199730436096,0.14116199730438869,0.14116199730439336,-5.0495301410406404
0.10299999999999998,99.214856721727315,99.214856721730172,99.214856721730683,0.20091720953977144,0.20091720953979444,0.20091720953979858,-4.7495733309017032
0.10399999999999998,98.899102699334492,98.899102699337391,98.899102699338215,0.28050209422389666,0.28050209422391775,0.28050209422392375,-4.0083551656141676
0.10499999999999998,98.56708992111902,98.567089921122431,98.567089921123099,0.37481600992911435,0.37481600992913594,0.37481600992914021,-2.7879128967867386
0.10599999999999998,98.323384836027643,98.323384836031266,98.323384836032488,0.4788787085908231,0.47887870859084231,0.47887870859084875,-1.1464507632346086
0.10699999999999998,98.301687579513512,98.301687579517164,98.301687579518159,0.58226515781430455,0.58226515781424582,0.58226515781422983,0.65601856664189828
0.10799999999999998,98.607402901479119,98.607402901482516,98.607402901483141,0.67192622885046172,0.67192622885040409,0.67192622885039355,2.2585147696028174
0.10899999999999999,99.251604405775737,99.251604405778821,99.251604405780085,0.73803164344651051,0.73803164344645655,0.73803164344643435,3.389881488742406
0.10999999999999999,100.11448060597955,100.11448060598242,100.11448060598362,0.77022894872355652,0.77022894872350578,0.77022894872348457,3.7253716927600466
0.11099999999999999,100.96479763337926,100.96479763338259,100.96479763338365,0.76300926881388809,0.76300926881383002,0.76300926881381137,3.1663496103694966
0.11199999999999999,101.57149987256216,101.57149987256531,101.57149987256614,0.71767631790526631,0.71767631790521291,0.71767631790519903,1.8522343944792823
0.11299999999999999,101.80495218918732,101.80495218918985,101.80495218919044,0.63965526296655872,0.63965526296651809,0.63965526296650843,0.097787792996925305
0.11399999999999999,101.68119899182656,101.68119899182892,101.68119899182943,0.53823329260227593,0.53823329260228669,0.53823329260228903,-1.7071920190802707
0.11499999999999999,101.3307781848053,101.33077818480696,101.33077818480706,0.42551462004995572,0.4255146200499651,0.42551462004996571,-3.2259250612050323
0.11599999999999998,100.91547609591285,100.91547609591437,100.91547609591423,0.3149795725404374,0.31497957254044773,0.31497957254044673,-4.2431760691196487
0.11699999999999998,100.55434054707439,100.55434054707597,100.55434054707584,0.2198128709521309,0.21981287095214311,0.21981287095214214,-4.7303168585765123
0.11799999999999998,100.2896642471211,100.28966424712276,100.28966424712264,0.14815176042187714,0.14815176042189127,0.14815176042189029,-4.8412979348757705
0.11899999999999998,100.1083533669691,100.10835336697068,100.10835336697039,0.10626283327626618,0.10626283327628026,0.10626283327627772,-4.7253042350669432
0.11999999999999998,99.969972598020831,99.969972598022366,99.969972598022096,0.094005210905875269,0.094005210905889175,0.094005210905886732,-4.6012502554702941
0.12099999999999998,99.832428689548138,99.832428689549701,99.832428689549374,0.1097642551926957,0.10976425519270963,0.10976425519270672,-4.529061886252201
0.12199999999999998,99.658553219678225,99.658553219679689,99.658553219679717,0.1490914710271056,0.14909147102711809,0.14909147102711834,-4.4760588808911113
0.12299999999999998,99.424578314532582,99.424578314533917,99.424578314534259,0.20914422664146601,0.20914422664147664,0.20914422664147936,-4.2465668764242368
0.12399999999999999,99.129482690445215,99.129482690446167,99.12948269044648,0.28657826621603655,0.28657826621604343,0.28657826621604565,-3.6833841157110987
0.12499999999999999,98.81430855485857,98.814308554859252,98.814308554859565,0.37875929410955239,0.37875929410955672,0.37875929410955866,-2.6651723795460152
