"Time","Vm1:Measured voltage:1","Vm1:Measured voltage:2","Vm1:Measured voltage:3","Divide18:1","Divide18:2","Divide18:3","Am1:Measured current"
0,100,100,100,0.083333333333333426,0.083333333333333426,0.083333333333333426,0
0.0009999999999999998,99.930173951136936,99.930173951136879,99.93017395113705,0.11236634015183002,0.11236634015182952,0.11236634015183103,-2.83090938024508
0.0019999999999999996,99.805581625366912,99.805581625366941,99.805581625367182,0.15614690409355053,0.15614690409355075,0.15614690409355281,-3.3261300156360925
0.0029999999999999996,99.610561929497337,99.610561929497521,99.610561929497678,0.22248503166755562,0.22248503166755706,0.22248503166755829,-3.520413366428635
0.0039999999999999992,99.334100615384244,99.334100615384756,99.334100615384926,0.30819382911597787,0.30819382911598148,0.30819382911598264,-3.4234860794381001
0.0049999999999999992,98.989761486250117,98.989761486250543,98.989761486250799,0.40601182172557587,0.40601182172557843,0.40601182172557992,-3.0280732101979568
0.0059999999999999993,98.624457599587615,98.624457599587998,98.624457599588013,0.50517732136638893,0.50517732136639082,0.50517732136639093,-2.3585074988240624
0.0069999999999999993,98.317798559013198,98.317798559014136,98.317798559013568,0.59548190976648052,0.59548190976648441,0.59548190976648208,-1.4197706674019797
0.0079999999999999984,98.166231940530352,98.166231940531006,98.16623194053038,0.66871994215052,0.66871994215052222,0.66871994215052011,-0.29146963007553683
0.0089999999999999993,98.250718836652709,98.250718836653789,98.250718836652453,0.71996726919529086,0.71996726919527199,0.7199672691952953,0.90776609971269429
0.0099999999999999985,98.589803223516938,98.589803223518388,98.589803223516967,0.7444786794131224,0.74447867941309676,0.74447867941312185,1.895611511364323
0.010999999999999999,99.100008596539354,99.100008596540647,99.100008596539183,0.73862926179990551,0.73862926179988286,0.73862926179990851,2.355121475592755
0.011999999999999999,99.620542596861014,99.620542596862336,99.620542596861668,0.70107236632511238,0.70107236632508985,0.70107236632510128,2.1025484740871105
0.012999999999999998,99.981225787396298,99.98122578739806,99.981225787397705,0.63410408297860132,0.63410408297857257,0.63410408297857834,1.1617801908362821
0.013999999999999999,100.08490079032649,100.0849007903289,100.08490079032889,0.5446243527650948,0.54462435276510579,0.54462435276510579,-0.22605687425667753
0.014999999999999998,99.95070256395617,99.950702563958387,99.950702563957918,0.44345022899226905,0.44345022899228143,0.44345022899227882,-1.7317114897801922
0.015999999999999997,99.670224067065007,99.670224067066982,99.670224067066258,0.34179981515567881,0.34179981515569186,0.34179981515568708,-3.065608668281854
0.016999999999999998,99.350983197538596,99.350983197540359,99.350983197539534,0.25286920099643706,0.25286920099645033,0.25286920099644411,-4.0695412661245136
0.017999999999999999,99.06028067336338,99.060280673365568,99.060280673364943,0.18758253016568216,0.18758253016570009,0.18758253016569498,-4.7541883681296371
0.018999999999999996,98.806201015110531,98.806201015112933,98.806201015112094,0.1488567636933808,0.14885676369340151,0.14885676369339429,-5.3830391413911949
0.019999999999999997,98.561646369840147,98.56164636984272,98.561646369841768,0.13597320150384765,0.13597320150387018,0.13597320150386183,-6.1411328282769029
0.020999999999999998,98.284624443656242,98.284624443658672,98.284624443657719,0.14408723009046429,0.14408723009048544,0.14408723009047716,-7.0883805356593363
0.021999999999999999,97.931029066208339,97.93102906621094,97.931029066209859,0.16761844494060027,0.16761844494062236,0.1676184449406132,-7.9935034552622177
0.022999999999999996,97.469611507062581,97.469611507064911,97.469611507063732,0.20438782281170159,0.2043878228117206,0.20438782281171097,-8.3888839545331511
0.023999999999999997,96.903350176548358,96.903350176550447,96.903350176549026,0.25778476955738799,0.25778476955740398,0.2577847695573931,-7.8009769012531649
0.024999999999999998,96.285883230009645,96.285883230011649,96.285883230009901,0.33230408328091282,0.3323040832809267,0.3323040832809146,-6.0625414877249471
0.025999999999999995,95.751318976925589,95.751318976927536,95.751318976925518,0.43070025154312563,0.43070025154313724,0.43070025154312525,-3.3331811792533159
0.026999999999999996,95.508574591243843,95.508574591245747,95.508574591243757,0.54371297597947765,0.54371297597948676,0.54371297597947732,-0.17469244547298324
0.027999999999999997,95.772989260863369,95.77298926086489,95.772989260862829,0.65519025719186486,0.65519025719183854,0.65519025719187418,2.7766591361518507
0.028999999999999995,96.627553144332666,96.627553144334371,96.62755314433268,0.7443526909523025,0.74435269095227174,0.74435269095230228,4.8736480186907434
0.029999999999999995,97.915207860318191,97.915207860320436,97.915207860318617,0.79597778740852609,0.7959777874084849,0.79597778740851821,5.6957253644449288
0.030999999999999996,99.272705257859613,99.272705257862569,99.272705257860949,0.80059698644004662,0.800596986439993,0.80059698644002231,5.0682798083288247
0.031999999999999994,100.29724110846863,100.29724110847181,100.29724110846998,0.75770796345934532,0.75770796345928959,0.75770796345932168,3.2196339605569211
0.032999999999999995,100.75700075648005,100.75700075648312,100.75700075648123,0.67633255564941919,0.67633255564936812,0.67633255564939954,0.71401140258221396
0.033999999999999996,100.66557776285792,100.66557776286052,100.66557776285873,0.56893425559529731,0.56893425559530841,0.56893425559530075,-1.8661362798509984
0.034999999999999996,100.21373565493056,100.213735654933,100.21373565493091,0.44970113096594888,0.44970113096596231,0.44970113096595082,-4.0881615464620342
0.035999999999999997,99.635245684982621,99.635245684985222,99.635245684983204,0.33421682379197681,0.33421682379199419,0.3342168237919807,-5.7303980265033365
0.036999999999999998,99.096786513533132,99.096786513535733,99.09678651353363,0.23533472858185103,0.2353347285818711,0.23533472858185486,-6.8440427288697165
0.037999999999999992,98.668411747475673,98.66841174747799,98.668411747475943,0.16124254534505916,0.16124254534507884,0.16124254534506144,-7.6012649756644581
0.038999999999999993,98.34471508085818,98.344715080860567,98.344715080858748,0.11555051901477829,0.11555051901479976,0.1155505190147834,-8.1662591992327567
0.039999999999999994,98.079885551328204,98.07988555133042,98.079885551328744,0.096835644211104202,0.096835644211124616,0.096835644211109184,-8.6570781217354895
0.040999999999999995,97.817103282312246,97.817103282314505,97.817103282312985,0.10332747687914846,0.10332747687916917,0.10332747687915524,-8.9821396822204846
0.041999999999999996,97.499762192668641,97.499762192670829,97.499762192669408,0.13318917760338997,0.13318917760340943,0.1331891776033968,-8.9555512173283898
0.042999999999999997,97.088177972354401,97.088177972356277,97.088177972355226,0.18417270124373944,0.1841727012437552,0.18417270124374635,-8.3217356686442248
0.043999999999999997,96.585397628259813,96.585397628261703,96.585397628260992,0.25666527130255951,0.25666527130257405,0.25666527130256861,-6.8326275454123602
0.044999999999999991,96.072711880626585,96.072711880628574,96.072711880627338,0.34774788079285157,0.34774788079286506,0.34774788079285668,-4.4810773326045776
0.045999999999999992,95.726432973399668,95.726432973401444,95.726432973400932,0.45429274157785621,0.45429274157786631,0.45429274157786337,-1.3926869039919403
0.046999999999999993,95.792714145101925,95.79271414510319,95.792714145102877,0.56702818393980936,0.56702818393978871,0.56702818393979382,1.9944680788266735
0.047999999999999994,96.487702257646163,96.487702257647186,96.487702257646376,0.67154851181722341,0.67154851181720565,0.67154851181721975,5.0714990373859248
0.048999999999999995,97.856677601990654,97.856677601991478,97.856677601990853,0.75154751083978311,0.75154751083976834,0.75154751083977955,7.1551448764665597
0.049999999999999996,99.663040647047666,99.663040647048319,99.66304064704795,0.79473459945793701,0.79473459945792524,0.7947345994579319,7.7337467498911137
0.050999999999999997,101.45072988846829,101.45072988846889,101.45072988846844,0.79371147795667674,0.79371147795666619,0.79371147795667396,6.592639545070238
0.051999999999999991,102.73851074121261,102.7385107412132,102.7385107412133,0.74832106058218006,0.74832106058216985,0.74832106058216818,3.9679380438990783
0.052999999999999992,103.25076381123147,103.25076381123201,103.2507638112321,0.66431611628124032,0.66431611628123166,0.66431611628123,0.48269060387345419
0.053999999999999992,103.03122371291599,103.03122371291656,103.0312237129169,0.55284293415366159,0.55284293415366403,0.55284293415366559,-3.0636784710039038
0.054999999999999993,102.36498198916907,102.36498198916988,102.36498198916995,0.42859643487253979,0.42859643487254429,0.42859643487254473,-5.9664081347825046
0.055999999999999994,101.59592593029026,101.59592593029053,101.59592593029009,0.30736917748379333,0.30736917748379516,0.30736917748379217,-7.8268597090926271
0.056999999999999995,100.95981209558326,100.9598120955836,100.95981209558323,0.20629092465255353,0.20629092465255622,0.2062909246525533,-8.5327442770651558
0.057999999999999989,100.52490745944516,100.52490745944581,100.52490745944554,0.13602626208433072,0.13602626208433635,0.13602626208433402,-8.3488880843275144
0.05899999999999999,100.24517763100674,100.24517763100741,100.2451776310069,0.099607958439147853,0.099607958439153862,0.099607958439149255,-7.6871557255069902
0.059999999999999991,100.0358705127927,100.03587051279322,100.03587051279297,0.093645296263535349,0.093645296263540109,0.093645296263537792,-6.9730409526063655
0.060999999999999992,99.83116002321465,99.831160023215205,99.831160023215176,0.11323094317132311,0.11323094317132802,0.11323094317132777,-6.4235422466819205
0.061999999999999993,99.584365917398543,99.58436591739931,99.584365917398799,0.15206925966828685,0.15206925966829341,0.15206925966828905,-6.0280638757178551
0.062999999999999987,99.271822992716878,99.271822992717659,99.271822992717091,0.2078646358665554,0.20786463586656165,0.2078646358665571,-5.5370512234092359
0.063999999999999987,98.897146780521368,98.897146780522249,98.897146780521808,0.27966505069678621,0.27966505069679259,0.27966505069678937,-4.6865930027859006
0.064999999999999988,98.508338004184452,98.508338004185532,98.508338004185376,0.36741144445788843,0.36741144445789536,0.36741144445789431,-3.3326017794529808
0.065999999999999989,98.208416667406311,98.208416667407178,98.20841666740624,0.46758300577147804,0.46758300577148276,0.46758300577147766,-1.5516088649000643
0.06699999999999999,98.129971795211162,98.129971795211887,98.129971795210963,0.57085173159280878,0.57085173159279723,0.570851731592812,0.36473518315544062
0.067999999999999991,98.377272979174634,98.377272979175274,98.377272979175459,0.66303760938811906,0.6630376093881083,0.66303760938810519,2.0246988204530663
0.068999999999999992,98.956555467354534,98.956555467355543,98.956555467355628,0.73237259229052598,0.73237259229050833,0.73237259229050689,3.1484864307737044
0.069999999999999993,99.74440835338325,99.744408353384301,99.744408353384429,0.76697046217139397,0.76697046217137543,0.7669704621713731,3.4289633339490537
0.070999999999999994,100.51046803006629,100.51046803006669,100.51046803006696,0.76293901568464773,0.76293901568464073,0.76293901568463607,2.8282683726318627
0.071999999999999995,101.02617514301247,101.02617514301359,101.02617514301409,0.71980534287210085,0.71980534287208164,0.71980534287207321,1.4507590322264239
0.072999999999999995,101.16335191142905,101.16335191142991,101.16335191143033,0.64283697487977798,0.64283697487978098,0.64283697487978242,-0.36405260376238679
0.073999999999999996,100.94713530152214,100.94713530152286,100.94713530152345,0.54237296522925615,0.54237296522925937,0.54237296522926204,-2.2030180521063514
0.074999999999999983,100.51743558815288,100.5174355881534,100.51743558815433,0.43163646736314504,0.43163646736314798,0.4316364673631532,-3.7069624435656792
0.075999999999999984,100.03793783922657,100.03793783922717,100.03793783922809,0.3249250676787141,0.32492506767871815,0.32492506767872437,-4.7018896130449672
0.076999999999999985,99.618963801441907,99.618963801442305,99.618963801443044,0.23513459044928509,0.23513459044928814,0.23513459044929383,-5.2224468913360766
0.077999999999999986,99.294061109642058,99.29406110964257,99.294061109643138,0.17064721760298004,0.17064721760298432,0.17064721760298907,-5.4787130336324088
0.078999999999999987,99.040379945509684,99.040379945510381,99.040379945510821,0.13273668479194053,0.13273668479194664,0.1327366847919505,-5.74982293894716
0.079999999999999988,98.815515245459707,98.815515245460261,98.815515245460375,0.1200758448603666,0.12007584486037154,0.12007584486037255,-6.2036388362152177
0.080999999999999989,98.572450205620285,98.572450205620797,98.572450205620882,0.12947428949419837,0.12947428949420289,0.12947428949420364,-6.8153932532524912
0.08199999999999999,98.266910548938355,98.266910548938867,98.266910548939023,0.15759525177834988,0.15759525177835426,0.15759525177835559,-7.3545598900861924
0.08299999999999999,97.864895334925265,97.864895334926061,97.864895334926359,0.20246491539751366,0.20246491539752015,0.20246491539752259,-7.4424049529249938
0.083999999999999991,97.364111186548513,97.364111186549152,97.364111186549493,0.26436151012840942,0.26436151012841425,0.26436151012841685,-6.7418318972686766
0.084999999999999992,96.822169337404716,96.822169337405185,96.822169337405739,0.3455403092417752,0.34554030924177837,0.34554030924178208,-5.0588585822517027
0.085999999999999993,96.376405798920771,96.376405798920956,96.376405798921368,0.4446114225901916,0.44461142259019265,0.44461142259019504,-2.5158634700128077
0.086999999999999994,96.234292374194396,96.234292374194908,96.234292374195036,0.55211229503115444,0.55211229503114612,0.55211229503114412,0.44629199315139445
0.087999999999999995,96.604839806676566,96.604839806677191,96.60483980667702,0.65599491947816246,0.65599491947815169,0.65599491947815469,3.2985052266266806
0.088999999999999982,97.565651254094206,97.565651254095016,97.565651254094988,0.73796927466472351,0.73796927466470907,0.73796927466470963,5.4002716487456874
0.089999999999999983,98.965587833196992,98.965587833197731,98.96558783319756,0.78379489501145949,0.78379489501144617,0.78379489501144917,6.275024080646288
0.090999999999999984,100.44820890330296,100.44820890330421,100.44820890330431,0.78589959359931305,0.78589959359929085,0.78589959359928907,5.720082272370985
0.091999999999999985,101.61503656831799,101.61503656831982,101.61503656832072,0.74477459923970457,0.74477459923967304,0.74477459923965772,3.9119954494971614
0.092999999999999985,102.20950795452389,102.20950795452565,102.20950795452623,0.66627828694104596,0.66627828694101732,0.66627828694100777,1.3206846759431325
0.093999999999999986,102.2168884922888,102.21688849229091,102.21688849229135,0.56123742631618068,0.56123742631618967,0.56123742631619156,-1.4469595697861735
0.094999999999999987,101.81921310507333,101.81921310507494,101.81921310507494,0.44282973612840187,0.44282973612841064,0.44282973612841064,-3.8921125575668203
0.095999999999999988,101.26514436475075,101.2651443647523,101.26514436475219,0.32753120698504673,0.32753120698505706,0.32753120698505628,-5.6649124578277732
0.096999999999999989,100.74388456107621,100.74388456107759,100.7438845610771,0.22796283201409365,0.22796283201410422,0.22796283201410039,-6.7623246292283605
0.09799999999999999,100.33992613791237,100.33992613791385,100.33992613791349,0.1552878606067791,0.15528786060679153,0.15528786060678856,-7.3151873429634922
0.098999999999999991,100.04446427117259,100.04446427117404,100.0444642711736,0.11080777445137795,0.11080777445139083,0.11080777445138691,-7.6062060371830045
0.099999999999999992,99.809623379152725,99.809623379154132,99.809623379153834,0.095209486063869003,0.095209486063881757,0.095209486063879051,-7.7902768377519465
0.10099999999999999,99.575977116057857,99.575977116059576,99.575977116059278,0.10485306341049665,0.10485306341051211,0.10485306341050943,-7.9228999266457105
0.10199999999999999,99.290178685503605,99.290178685505467,99.29017868550504,0.13675073512806313,0.13675073512807931,0.13675073512807562,-7.8538428689440511
0.10299999999999998,98.917553243636704,98.917553243638807,98.917553243638338,0.18871078666905411,0.18871078666907135,0.18871078666906752,-7.3367512470758616
0.10399999999999998,98.461306928628645,98.461306928630506,98.461306928630066,0.26094859129127901,0.260948591291293,0.26094859129128967,-6.1381218959536792
0.10499999999999998,97.986143956567588,97.986143956569634,97.986143956569165,0.35139299065575691,0.35139299065577045,0.35139299065576735,-4.2155144157677649
0.10599999999999998,97.633462737914158,97.633462737915934,97.633462737915636,0.45585336662907772,0.4558533666290876,0.45585336662908593,-1.7130869833496956
0.10699999999999998,97.597572429500246,97.597572429502307,97.597572429501781,0.56520778648184389,0.56520778648181091,0.56520778648181935,1.0224211554933245
0.10799999999999998,98.041587060533857,98.041587060536486,98.041587060535917,0.66432357948319332,0.66432357948314869,0.66432357948315823,3.453127870256278
0.10899999999999999,98.994391217345097,98.994391217348152,98.994391217347854,0.73996681216971272,0.73996681216965898,0.73996681216966431,5.1247966311976629
0.10999999999999999,100.28008803261442,100.28008803261761,100.28008803261761,0.77963898501335549,0.77963898501329876,0.77963898501329876,5.6019913999433246
0.11099999999999999,101.55212230709314,101.55212230709557,101.55212230709539,0.77644119019703361,0.77644119019699109,0.77644119019699431,4.7437903123456131
0.11199999999999999,102.45418939141473,102.45418939141801,102.45418939141803,0.73197195453437103,0.73197195453431552,0.73197195453431529,2.7594442680030813
0.11299999999999999,102.78799227840361,102.78799227840706,102.78799227840702,0.65204726468028062,0.65204726468022511,0.65204726468022589,0.12745477398858007
0.11399999999999999,102.58009645362787,102.58009645363089,102.58009645363119,0.54653807403061028,0.54653807403062349,0.54653807403062482,-2.585830446730272
0.11499999999999999,102.03646218988676,102.03646218989036,102.03646218989086,0.42922333868625367,0.42922333868627377,0.42922333868627655,-4.8558228250964923
0.11599999999999998,101.40539163106553,101.40539163106885,101.40539163106878,0.31540172278215906,0.31540172278218148,0.31540172278218098,-6.3704587987186176
0.11699999999999998,100.86224348671355,100.86224348671675,100.86224348671666,0.21871404717879692,0.2187140471788217,0.21871404717882104,-7.1026873798671604
0.11799999999999998,100.4653769861403,100.46537698614345,100.4653769861432,0.14998079934065106,0.14998079934067773,0.1499807993406756,-7.2250334185747196
0.11899999999999998,100.18665181259803,100.18665181260117,100.18665181260072,0.11231857968603583,0.11231857968606365,0.11231857968605963,-7.0660285636787172
0.11999999999999998,99.964620600063384,99.964620600066596,99.964620600065956,0.10295573593078722,0.10295573593081604,0.1029557359308103,-6.9079936763135512
0.12099999999999998,99.738643467542758,99.738643467545927,99.738643467545288,0.11626555166460879,0.11626555166463688,0.11626555166463121,-6.8923319194852386
0.12199999999999998,99.464745768280736,99.46474576828372,99.464745768283152,0.1511528108979508,0.15115281089797628,0.15115281089797142,-6.8259644056021243
0.12299999999999998,99.109787622815759,99.109787622818999,99.109787622818274,0.20326904983407504,0.20326904983410107,0.20326904983409524,-6.4996068498248487
0.12399999999999999,98.674890609538892,98.674890609542146,98.674890609541563,0.27173104247270996,0.27173104247273394,0.27173104247272967,-5.6364481956142383
0.12499999999999999,98.216002298363605,98.216002298366405,98.216002298365325,0.35763902603015274,0.35763902603017106,0.35763902603016395,-4.0721707358953179
